# Comparação: Solução Numérica vs Solução Analítica
# θ₀ = 1.5708 rad (90.0 graus)
# t(s)	theta_num(rad)	theta_anal(rad)	diferenca(rad)
0.000000	1.570796	1.570796	0.000000e+00
0.000100	1.570796	1.570796	2.799942e-08
0.000200	1.570796	1.570796	1.119977e-07
0.000300	1.570796	1.570796	2.519947e-07
0.000400	1.570796	1.570795	4.479906e-07
0.000500	1.570795	1.570794	6.999851e-07
0.000600	1.570795	1.570794	1.007978e-06
0.000700	1.570794	1.570793	1.371970e-06
0.000800	1.570793	1.570791	1.791960e-06
0.000900	1.570792	1.570790	2.267949e-06
0.001000	1.570791	1.570789	2.799936e-06
0.001100	1.570790	1.570787	3.387921e-06
0.001200	1.570789	1.570785	4.031904e-06
0.001300	1.570788	1.570783	4.731884e-06
0.001400	1.570787	1.570781	5.487862e-06
0.001500	1.570785	1.570779	6.299838e-06
0.001600	1.570784	1.570777	7.167811e-06
0.001700	1.570782	1.570774	8.091780e-06
0.001800	1.570780	1.570771	9.071746e-06
0.001900	1.570779	1.570769	1.010771e-05
0.002000	1.570777	1.570766	1.119967e-05
0.002100	1.570775	1.570762	1.234762e-05
0.002200	1.570773	1.570759	1.355157e-05
0.002300	1.570770	1.570756	1.481152e-05
0.002400	1.570768	1.570752	1.612746e-05
0.002500	1.570766	1.570748	1.749939e-05
0.002600	1.570763	1.570744	1.892732e-05
0.002700	1.570761	1.570740	2.041124e-05
0.002800	1.570758	1.570736	2.195116e-05
0.002900	1.570755	1.570732	2.354707e-05
0.003000	1.570752	1.570727	2.519897e-05
0.003100	1.570749	1.570722	2.690686e-05
0.003200	1.570746	1.570717	2.867075e-05
0.003300	1.570743	1.570712	3.049062e-05
0.003400	1.570740	1.570707	3.236649e-05
0.003500	1.570736	1.570702	3.429835e-05
0.003600	1.570733	1.570696	3.628619e-05
0.003700	1.570729	1.570691	3.833003e-05
0.003800	1.570725	1.570685	4.042985e-05
0.003900	1.570722	1.570679	4.258566e-05
0.004000	1.570718	1.570673	4.479746e-05
0.004100	1.570714	1.570667	4.706525e-05
0.004200	1.570710	1.570660	4.938902e-05
0.004300	1.570706	1.570654	5.176878e-05
0.004400	1.570701	1.570647	5.420452e-05
0.004500	1.570697	1.570640	5.669624e-05
0.004600	1.570693	1.570633	5.924395e-05
0.004700	1.570688	1.570626	6.184765e-05
0.004800	1.570683	1.570619	6.450732e-05
0.004900	1.570679	1.570611	6.722298e-05
0.005000	1.570674	1.570604	6.999462e-05
0.005100	1.570669	1.570596	7.282223e-05
0.005200	1.570664	1.570588	7.570583e-05
0.005300	1.570659	1.570580	7.864540e-05
0.005400	1.570653	1.570572	8.164096e-05
0.005500	1.570648	1.570563	8.469248e-05
0.005600	1.570642	1.570555	8.779999e-05
0.005700	1.570637	1.570546	9.096347e-05
0.005800	1.570631	1.570537	9.418292e-05
0.005900	1.570626	1.570528	9.745835e-05
0.006000	1.570620	1.570519	1.007898e-04
0.006100	1.570614	1.570510	1.041771e-04
0.006200	1.570608	1.570500	1.076205e-04
0.006300	1.570602	1.570491	1.111198e-04
0.006400	1.570595	1.570481	1.146751e-04
0.006500	1.570589	1.570471	1.182863e-04
0.006600	1.570583	1.570461	1.219535e-04
0.006700	1.570576	1.570450	1.256767e-04
0.006800	1.570570	1.570440	1.294559e-04
0.006900	1.570563	1.570429	1.332910e-04
0.007000	1.570556	1.570419	1.371820e-04
0.007100	1.570549	1.570408	1.411291e-04
0.007200	1.570542	1.570397	1.451321e-04
0.007300	1.570535	1.570386	1.491910e-04
0.007400	1.570528	1.570374	1.533059e-04
0.007500	1.570520	1.570363	1.574768e-04
0.007600	1.570513	1.570351	1.617036e-04
0.007700	1.570505	1.570340	1.659864e-04
0.007800	1.570498	1.570328	1.703252e-04
0.007900	1.570490	1.570315	1.747199e-04
0.008000	1.570482	1.570303	1.791705e-04
0.008100	1.570474	1.570291	1.836771e-04
0.008200	1.570466	1.570278	1.882396e-04
0.008300	1.570458	1.570266	1.928581e-04
0.008400	1.570450	1.570253	1.975326e-04
0.008500	1.570442	1.570240	2.022629e-04
0.008600	1.570434	1.570226	2.070493e-04
0.008700	1.570425	1.570213	2.118915e-04
0.008800	1.570416	1.570200	2.167897e-04
0.008900	1.570408	1.570186	2.217439e-04
0.009000	1.570399	1.570172	2.267540e-04
0.009100	1.570390	1.570158	2.318200e-04
0.009200	1.570381	1.570144	2.369420e-04
0.009300	1.570372	1.570130	2.421199e-04
0.009400	1.570363	1.570116	2.473537e-04
0.009500	1.570354	1.570101	2.526435e-04
0.009600	1.570344	1.570086	2.579892e-04
0.009700	1.570335	1.570071	2.633908e-04
0.009800	1.570325	1.570056	2.688483e-04
0.009900	1.570316	1.570041	2.743618e-04
0.010000	1.570306	1.570026	2.799312e-04
0.010100	1.570296	1.570010	2.855565e-04
0.010200	1.570286	1.569995	2.912378e-04
0.010300	1.570276	1.569979	2.969750e-04
0.010400	1.570266	1.569963	3.027681e-04
0.010500	1.570256	1.569947	3.086171e-04
0.010600	1.570245	1.569931	3.145220e-04
0.010700	1.570235	1.569914	3.204828e-04
0.010800	1.570224	1.569898	3.264996e-04
0.010900	1.570214	1.569881	3.325722e-04
0.011000	1.570203	1.569864	3.387008e-04
0.011100	1.570192	1.569847	3.448852e-04
0.011200	1.570181	1.569830	3.511256e-04
0.011300	1.570170	1.569813	3.574219e-04
0.011400	1.570159	1.569795	3.637741e-04
0.011500	1.570148	1.569777	3.701822e-04
0.011600	1.570136	1.569760	3.766462e-04
0.011700	1.570125	1.569742	3.831660e-04
0.011800	1.570113	1.569724	3.897418e-04
0.011900	1.570102	1.569705	3.963735e-04
0.012000	1.570090	1.569687	4.030611e-04
0.012100	1.570078	1.569668	4.098045e-04
0.012200	1.570066	1.569650	4.166039e-04
0.012300	1.570054	1.569631	4.234591e-04
0.012400	1.570042	1.569612	4.303702e-04
0.012500	1.570030	1.569593	4.373372e-04
0.012600	1.570018	1.569573	4.443601e-04
0.012700	1.570005	1.569554	4.514388e-04
0.012800	1.569993	1.569534	4.585734e-04
0.012900	1.569980	1.569514	4.657639e-04
0.013000	1.569967	1.569494	4.730103e-04
0.013100	1.569955	1.569474	4.803126e-04
0.013200	1.569942	1.569454	4.876707e-04
0.013300	1.569929	1.569434	4.950847e-04
0.013400	1.569916	1.569413	5.025545e-04
0.013500	1.569902	1.569392	5.100802e-04
0.013600	1.569889	1.569371	5.176618e-04
0.013700	1.569876	1.569350	5.252993e-04
0.013800	1.569862	1.569329	5.329926e-04
0.013900	1.569849	1.569308	5.407417e-04
0.014000	1.569835	1.569286	5.485467e-04
0.014100	1.569821	1.569265	5.564076e-04
0.014200	1.569807	1.569243	5.643242e-04
0.014300	1.569793	1.569221	5.722968e-04
0.014400	1.569779	1.569199	5.803252e-04
0.014500	1.569765	1.569177	5.884094e-04
0.014600	1.569751	1.569154	5.965495e-04
0.014700	1.569736	1.569132	6.047454e-04
0.014800	1.569722	1.569109	6.129971e-04
0.014900	1.569707	1.569086	6.213047e-04
0.015000	1.569693	1.569063	6.296681e-04
0.015101	1.569678	1.569040	6.380874e-04
0.015201	1.569663	1.569016	6.465624e-04
0.015301	1.569648	1.568993	6.550933e-04
0.015401	1.569633	1.568969	6.636800e-04
0.015501	1.569618	1.568945	6.723226e-04
0.015601	1.569603	1.568922	6.810209e-04
0.015701	1.569587	1.568897	6.897751e-04
0.015801	1.569572	1.568873	6.985851e-04
0.015901	1.569556	1.568849	7.074508e-04
0.016001	1.569541	1.568824	7.163724e-04
0.016101	1.569525	1.568799	7.253498e-04
0.016201	1.569509	1.568775	7.343830e-04
0.016301	1.569493	1.568750	7.434720e-04
0.016401	1.569477	1.568724	7.526168e-04
0.016501	1.569461	1.568699	7.618174e-04
0.016601	1.569445	1.568674	7.710738e-04
0.016701	1.569428	1.568648	7.803860e-04
0.016801	1.569412	1.568622	7.897540e-04
0.016901	1.569395	1.568596	7.991777e-04
0.017001	1.569379	1.568570	8.086573e-04
0.017101	1.569362	1.568544	8.181926e-04
0.017201	1.569345	1.568517	8.277837e-04
0.017301	1.569328	1.568491	8.374306e-04
0.017401	1.569311	1.568464	8.471332e-04
0.017501	1.569294	1.568437	8.568916e-04
0.017601	1.569277	1.568410	8.667058e-04
0.017701	1.569260	1.568383	8.765758e-04
0.017801	1.569242	1.568356	8.865015e-04
0.017901	1.569225	1.568328	8.964829e-04
0.018001	1.569207	1.568300	9.065202e-04
0.018101	1.569189	1.568273	9.166131e-04
0.018201	1.569171	1.568245	9.267619e-04
0.018301	1.569154	1.568217	9.369663e-04
0.018401	1.569136	1.568188	9.472266e-04
0.018501	1.569117	1.568160	9.575425e-04
0.018601	1.569099	1.568131	9.679142e-04
0.018701	1.569081	1.568103	9.783417e-04
0.018801	1.569063	1.568074	9.888249e-04
0.018901	1.569044	1.568045	9.993638e-04
0.019001	1.569026	1.568016	1.009958e-03
0.019101	1.569007	1.567986	1.020609e-03
0.019201	1.568988	1.567957	1.031315e-03
0.019301	1.568969	1.567927	1.042077e-03
0.019401	1.568950	1.567897	1.052894e-03
0.019501	1.568931	1.567867	1.063767e-03
0.019601	1.568912	1.567837	1.074696e-03
0.019701	1.568893	1.567807	1.085681e-03
0.019801	1.568873	1.567777	1.096721e-03
0.019901	1.568854	1.567746	1.107818e-03
0.020001	1.568834	1.567715	1.118969e-03
0.020101	1.568815	1.567684	1.130177e-03
0.020201	1.568795	1.567653	1.141440e-03
0.020301	1.568775	1.567622	1.152759e-03
0.020401	1.568755	1.567591	1.164133e-03
0.020501	1.568735	1.567559	1.175564e-03
0.020601	1.568715	1.567528	1.187049e-03
0.020701	1.568694	1.567496	1.198591e-03
0.020801	1.568674	1.567464	1.210188e-03
0.020901	1.568654	1.567432	1.221841e-03
0.021001	1.568633	1.567400	1.233550e-03
0.021101	1.568612	1.567367	1.245314e-03
0.021201	1.568592	1.567335	1.257134e-03
0.021301	1.568571	1.567302	1.269010e-03
0.021401	1.568550	1.567269	1.280941e-03
0.021501	1.568529	1.567236	1.292928e-03
0.021601	1.568508	1.567203	1.304970e-03
0.021701	1.568486	1.567169	1.317069e-03
0.021801	1.568465	1.567136	1.329222e-03
0.021901	1.568444	1.567102	1.341432e-03
0.022001	1.568422	1.567068	1.353697e-03
0.022101	1.568401	1.567034	1.366018e-03
0.022201	1.568379	1.567000	1.378394e-03
0.022301	1.568357	1.566966	1.390826e-03
0.022401	1.568335	1.566932	1.403314e-03
0.022501	1.568313	1.566897	1.415857e-03
0.022601	1.568291	1.566862	1.428456e-03
0.022701	1.568269	1.566828	1.441110e-03
0.022801	1.568246	1.566793	1.453820e-03
0.022901	1.568224	1.566757	1.466586e-03
0.023001	1.568201	1.566722	1.479407e-03
0.023101	1.568179	1.566687	1.492284e-03
0.023201	1.568156	1.566651	1.505217e-03
0.023301	1.568133	1.566615	1.518205e-03
0.023401	1.568110	1.566579	1.531249e-03
0.023501	1.568087	1.566543	1.544348e-03
0.023601	1.568064	1.566507	1.557503e-03
0.023701	1.568041	1.566470	1.570713e-03
0.023801	1.568018	1.566434	1.583979e-03
0.023901	1.567994	1.566397	1.597301e-03
0.024001	1.567971	1.566360	1.610678e-03
0.024101	1.567947	1.566323	1.624110e-03
0.024201	1.567924	1.566286	1.637599e-03
0.024301	1.567900	1.566249	1.651143e-03
0.024401	1.567876	1.566211	1.664742e-03
0.024501	1.567852	1.566174	1.678397e-03
0.024601	1.567828	1.566136	1.692107e-03
0.024701	1.567804	1.566098	1.705873e-03
0.024801	1.567779	1.566060	1.719695e-03
0.024901	1.567755	1.566021	1.733572e-03
0.025001	1.567730	1.565983	1.747505e-03
0.025101	1.567706	1.565944	1.761493e-03
0.025201	1.567681	1.565906	1.775536e-03
0.025301	1.567656	1.565867	1.789636e-03
0.025401	1.567632	1.565828	1.803790e-03
0.025501	1.567607	1.565789	1.818000e-03
0.025601	1.567582	1.565749	1.832266e-03
0.025701	1.567556	1.565710	1.846587e-03
0.025801	1.567531	1.565670	1.860964e-03
0.025901	1.567506	1.565630	1.875396e-03
0.026001	1.567480	1.565590	1.889884e-03
0.026101	1.567455	1.565550	1.904427e-03
0.026201	1.567429	1.565510	1.919026e-03
0.026301	1.567403	1.565470	1.933680e-03
0.026401	1.567378	1.565429	1.948390e-03
0.026501	1.567352	1.565388	1.963155e-03
0.026601	1.567326	1.565348	1.977975e-03
0.026701	1.567299	1.565307	1.992851e-03
0.026801	1.567273	1.565265	2.007783e-03
0.026901	1.567247	1.565224	2.022770e-03
0.027001	1.567220	1.565183	2.037812e-03
0.027101	1.567194	1.565141	2.052910e-03
0.027201	1.567167	1.565099	2.068064e-03
0.027301	1.567140	1.565057	2.083272e-03
0.027401	1.567114	1.565015	2.098536e-03
0.027501	1.567087	1.564973	2.113856e-03
0.027601	1.567060	1.564930	2.129231e-03
0.027701	1.567033	1.564888	2.144662e-03
0.027801	1.567005	1.564845	2.160147e-03
0.027901	1.566978	1.564802	2.175689e-03
0.028001	1.566951	1.564759	2.191285e-03
0.028101	1.566923	1.564716	2.206938e-03
0.028201	1.566895	1.564673	2.222645e-03
0.028301	1.566868	1.564629	2.238408e-03
0.028401	1.566840	1.564586	2.254226e-03
0.028501	1.566812	1.564542	2.270100e-03
0.028601	1.566784	1.564498	2.286029e-03
0.028701	1.566756	1.564454	2.302014e-03
0.028801	1.566728	1.564410	2.318054e-03
0.028901	1.566699	1.564365	2.334149e-03
0.029001	1.566671	1.564321	2.350299e-03
0.029101	1.566642	1.564276	2.366505e-03
0.029201	1.566614	1.564231	2.382767e-03
0.029301	1.566585	1.564186	2.399083e-03
0.029401	1.566556	1.564141	2.415455e-03
0.029501	1.566527	1.564096	2.431883e-03
0.029601	1.566498	1.564050	2.448365e-03
0.029701	1.566469	1.564004	2.464904e-03
0.029801	1.566440	1.563959	2.481497e-03
0.029901	1.566411	1.563913	2.498146e-03
0.030001	1.566382	1.563867	2.514850e-03
0.030101	1.566352	1.563820	2.531609e-03
0.030201	1.566322	1.563774	2.548424e-03
0.030301	1.566293	1.563728	2.565294e-03
0.030401	1.566263	1.563681	2.582219e-03
0.030501	1.566233	1.563634	2.599200e-03
0.030601	1.566203	1.563587	2.616236e-03
0.030701	1.566173	1.563540	2.633327e-03
0.030801	1.566143	1.563492	2.650473e-03
0.030901	1.566113	1.563445	2.667675e-03
0.031001	1.566082	1.563397	2.684932e-03
0.031101	1.566052	1.563350	2.702244e-03
0.031201	1.566021	1.563302	2.719612e-03
0.031301	1.565991	1.563254	2.737035e-03
0.031401	1.565960	1.563205	2.754513e-03
0.031501	1.565929	1.563157	2.772046e-03
0.031601	1.565898	1.563108	2.789635e-03
0.031701	1.565867	1.563060	2.807279e-03
0.031801	1.565836	1.563011	2.824978e-03
0.031901	1.565805	1.562962	2.842732e-03
0.032001	1.565773	1.562913	2.860542e-03
0.032101	1.565742	1.562863	2.878406e-03
0.032201	1.565710	1.562814	2.896326e-03
0.032301	1.565679	1.562764	2.914302e-03
0.032401	1.565647	1.562715	2.932332e-03
0.032501	1.565615	1.562665	2.950418e-03
0.032601	1.565583	1.562615	2.968559e-03
0.032701	1.565551	1.562564	2.986755e-03
0.032801	1.565519	1.562514	3.005006e-03
0.032901	1.565487	1.562463	3.023312e-03
0.033001	1.565454	1.562413	3.041674e-03
0.033101	1.565422	1.562362	3.060091e-03
0.033201	1.565389	1.562311	3.078563e-03
0.033301	1.565357	1.562260	3.097090e-03
0.033401	1.565324	1.562208	3.115672e-03
0.033501	1.565291	1.562157	3.134310e-03
0.033601	1.565258	1.562105	3.153002e-03
0.033701	1.565225	1.562054	3.171750e-03
0.033801	1.565192	1.562002	3.190553e-03
0.033901	1.565159	1.561950	3.209411e-03
0.034001	1.565126	1.561897	3.228324e-03
0.034101	1.565092	1.561845	3.247292e-03
0.034201	1.565059	1.561793	3.266316e-03
0.034301	1.565025	1.561740	3.285394e-03
0.034401	1.564992	1.561687	3.304528e-03
0.034501	1.564958	1.561634	3.323717e-03
0.034601	1.564924	1.561581	3.342961e-03
0.034701	1.564890	1.561528	3.362260e-03
0.034801	1.564856	1.561474	3.381614e-03
0.034901	1.564822	1.561421	3.401023e-03
0.035001	1.564787	1.561367	3.420487e-03
0.035101	1.564753	1.561313	3.440006e-03
0.035201	1.564718	1.561259	3.459581e-03
0.035301	1.564684	1.561205	3.479210e-03
0.035401	1.564649	1.561150	3.498895e-03
0.035501	1.564614	1.561096	3.518634e-03
0.035601	1.564580	1.561041	3.538429e-03
0.035701	1.564545	1.560986	3.558278e-03
0.035801	1.564509	1.560931	3.578183e-03
0.035901	1.564474	1.560876	3.598143e-03
0.036001	1.564439	1.560821	3.618157e-03
0.036101	1.564404	1.560765	3.638227e-03
0.036201	1.564368	1.560710	3.658352e-03
0.036301	1.564333	1.560654	3.678532e-03
0.036401	1.564297	1.560598	3.698766e-03
0.036501	1.564261	1.560542	3.719056e-03
0.036601	1.564225	1.560486	3.739401e-03
0.036701	1.564189	1.560430	3.759801e-03
0.036801	1.564153	1.560373	3.780255e-03
0.036901	1.564117	1.560316	3.800765e-03
0.037001	1.564081	1.560260	3.821330e-03
0.037101	1.564045	1.560203	3.841950e-03
0.037201	1.564008	1.560146	3.862624e-03
0.037301	1.563972	1.560088	3.883354e-03
0.037401	1.563935	1.560031	3.904138e-03
0.037501	1.563898	1.559973	3.924978e-03
0.037601	1.563861	1.559916	3.945872e-03
0.037701	1.563824	1.559858	3.966822e-03
0.037801	1.563787	1.559800	3.987826e-03
0.037901	1.563750	1.559741	4.008885e-03
0.038001	1.563713	1.559683	4.029999e-03
0.038101	1.563676	1.559625	4.051168e-03
0.038201	1.563638	1.559566	4.072392e-03
0.038301	1.563601	1.559507	4.093671e-03
0.038401	1.563563	1.559448	4.115005e-03
0.038501	1.563525	1.559389	4.136393e-03
0.038601	1.563488	1.559330	4.157837e-03
0.038701	1.563450	1.559270	4.179335e-03
0.038801	1.563412	1.559211	4.200888e-03
0.038901	1.563374	1.559151	4.222497e-03
0.039001	1.563335	1.559091	4.244160e-03
0.039101	1.563297	1.559031	4.265877e-03
0.039201	1.563259	1.558971	4.287650e-03
0.039301	1.563220	1.558911	4.309478e-03
0.039401	1.563182	1.558850	4.331360e-03
0.039501	1.563143	1.558790	4.353297e-03
0.039601	1.563104	1.558729	4.375289e-03
0.039701	1.563065	1.558668	4.397336e-03
0.039801	1.563026	1.558607	4.419438e-03
0.039901	1.562987	1.558545	4.441594e-03
0.040001	1.562948	1.558484	4.463805e-03
0.040101	1.562909	1.558422	4.486071e-03
0.040201	1.562869	1.558361	4.508392e-03
0.040301	1.562830	1.558299	4.530768e-03
0.040401	1.562790	1.558237	4.553198e-03
0.040501	1.562750	1.558175	4.575683e-03
0.040601	1.562711	1.558112	4.598223e-03
0.040701	1.562671	1.558050	4.620818e-03
0.040801	1.562631	1.557987	4.643467e-03
0.040901	1.562591	1.557924	4.666171e-03
0.041001	1.562550	1.557862	4.688930e-03
0.041101	1.562510	1.557798	4.711744e-03
0.041201	1.562470	1.557735	4.734612e-03
0.041301	1.562429	1.557672	4.757535e-03
0.041401	1.562389	1.557608	4.780513e-03
0.041501	1.562348	1.557545	4.803546e-03
0.041601	1.562307	1.557481	4.826633e-03
0.041701	1.562267	1.557417	4.849775e-03
0.041801	1.562226	1.557353	4.872971e-03
0.041901	1.562185	1.557288	4.896223e-03
0.042001	1.562143	1.557224	4.919529e-03
0.042101	1.562102	1.557159	4.942889e-03
0.042201	1.562061	1.557094	4.966305e-03
0.042301	1.562019	1.557030	4.989775e-03
0.042401	1.561978	1.556964	5.013299e-03
0.042501	1.561936	1.556899	5.036878e-03
0.042601	1.561894	1.556834	5.060512e-03
0.042701	1.561853	1.556768	5.084201e-03
0.042801	1.561811	1.556703	5.107944e-03
0.042901	1.561769	1.556637	5.131742e-03
0.043001	1.561726	1.556571	5.155594e-03
0.043101	1.561684	1.556505	5.179501e-03
0.043201	1.561642	1.556438	5.203463e-03
0.043301	1.561599	1.556372	5.227479e-03
0.043401	1.561557	1.556305	5.251550e-03
0.043501	1.561514	1.556239	5.275675e-03
0.043601	1.561472	1.556172	5.299855e-03
0.043701	1.561429	1.556105	5.324090e-03
0.043801	1.561386	1.556037	5.348379e-03
0.043901	1.561343	1.555970	5.372722e-03
0.044001	1.561300	1.555903	5.397120e-03
0.044101	1.561256	1.555835	5.421573e-03
0.044201	1.561213	1.555767	5.446080e-03
0.044301	1.561170	1.555699	5.470642e-03
0.044401	1.561126	1.555631	5.495258e-03
0.044501	1.561083	1.555563	5.519929e-03
0.044601	1.561039	1.555494	5.544655e-03
0.044701	1.560995	1.555426	5.569434e-03
0.044801	1.560951	1.555357	5.594269e-03
0.044901	1.560907	1.555288	5.619157e-03
0.045001	1.560863	1.555219	5.644101e-03
0.045101	1.560819	1.555150	5.669099e-03
0.045202	1.560775	1.555080	5.694151e-03
0.045302	1.560730	1.555011	5.719257e-03
0.045402	1.560686	1.554941	5.744419e-03
0.045502	1.560641	1.554871	5.769634e-03
0.045602	1.560596	1.554802	5.794904e-03
0.045702	1.560552	1.554731	5.820229e-03
0.045802	1.560507	1.554661	5.845608e-03
0.045902	1.560462	1.554591	5.871041e-03
0.046002	1.560417	1.554520	5.896529e-03
0.046102	1.560372	1.554449	5.922071e-03
0.046202	1.560326	1.554379	5.947667e-03
0.046302	1.560281	1.554308	5.973318e-03
0.046402	1.560235	1.554236	5.999024e-03
0.046502	1.560190	1.554165	6.024783e-03
0.046602	1.560144	1.554094	6.050597e-03
0.046702	1.560098	1.554022	6.076466e-03
0.046802	1.560053	1.553950	6.102389e-03
0.046902	1.560007	1.553878	6.128366e-03
0.047002	1.559961	1.553806	6.154397e-03
0.047102	1.559914	1.553734	6.180483e-03
0.047202	1.559868	1.553661	6.206623e-03
0.047302	1.559822	1.553589	6.232818e-03
0.047402	1.559775	1.553516	6.259067e-03
0.047502	1.559729	1.553443	6.285370e-03
0.047602	1.559682	1.553370	6.311727e-03
0.047702	1.559635	1.553297	6.338139e-03
0.047802	1.559588	1.553224	6.364605e-03
0.047902	1.559542	1.553150	6.391125e-03
0.048002	1.559495	1.553077	6.417700e-03
0.048102	1.559447	1.553003	6.444329e-03
0.048202	1.559400	1.552929	6.471012e-03
0.048302	1.559353	1.552855	6.497749e-03
0.048402	1.559305	1.552781	6.524541e-03
0.048502	1.559258	1.552706	6.551386e-03
0.048602	1.559210	1.552632	6.578286e-03
0.048702	1.559162	1.552557	6.605241e-03
0.048802	1.559115	1.552482	6.632249e-03
0.048902	1.559067	1.552407	6.659312e-03
0.049002	1.559019	1.552332	6.686429e-03
0.049102	1.558971	1.552257	6.713600e-03
0.049202	1.558922	1.552182	6.740825e-03
0.049302	1.558874	1.552106	6.768105e-03
0.049402	1.558826	1.552030	6.795438e-03
0.049502	1.558777	1.551954	6.822826e-03
